  ====================================================
  TEXSTAN(academic)
  s410_7.dat, turb ml+em, pipe, CEF, Ts(x)                                
  stepsize: variable from dx=  .010 to dx=  .200
  energy eqn: solved, no source terms
  properties: constant
     po= 1.01325E+05  den= 1.31100E+04  vis= 1.01000E-03  sp_ht= 1.36000E+02
     prc(je)=     .010
  initial profiles: kstart=  1  dyi= 1.000E-06  rate=  .1750
  turbulence model information:
     m-l: k=0.40, al=0.070, a+=26, em=fn(0.005,0.9)
     turbulent prandtl number model: Kays variable prt
  axx= 0.0000E+00  bxx= 0.0000E+00  cxx= 0.0000E+00  dxx= 0.0000E+00
  exx= 0.0000E+00  fxx= 9.0000E-01  gxx= 0.0000E+00
  ====================================================
   Turbulent pipe flow benchmark
   cf/2,theo = 1./(2.236*ln(re,dh)-4.639)**2                           
   nu,theo = 6.3 + 0.0167*rem**0.85*prm**0.93                          
   re,dh = 5.0000E+04   prm =   .010
  ====================================================

 intg  x/dh      cf2         nu     cfrat   nurat  tm/ts  ts         qflux
    5 2.500E-02 1.180E-02   115.4   4.511  13.460  1.000 2.800E+02  2.500E+02
  200 1.000E+00 3.737E-03    20.3   1.429   2.372  1.000 2.800E+02  2.500E+02
  400 2.000E+00 3.337E-03    15.4   1.276   1.801  1.000 2.801E+02  2.500E+02
  600 3.000E+00 3.158E-03    13.4   1.207   1.559  1.000 2.801E+02  2.500E+02
  800 4.000E+00 3.054E-03    12.2   1.168   1.422  1.000 2.801E+02  2.500E+02
 1000 5.000E+00 2.987E-03    11.4   1.142   1.334  1.000 2.801E+02  2.500E+02
 1200 6.106E+00 2.935E-03    10.9   1.122   1.266  1.000 2.801E+02  2.500E+02
 1400 7.458E+00 2.889E-03    10.3   1.105   1.206  1.000 2.801E+02  2.500E+02
 1600 9.108E+00 2.846E-03     9.9   1.088   1.154  1.000 2.801E+02  2.500E+02
 1800 1.112E+01 2.807E-03     9.5   1.073   1.110  1.000 2.801E+02  2.500E+02
 2000 1.358E+01 2.773E-03     9.2   1.060   1.074  1.000 2.801E+02  2.500E+02
 2200 1.659E+01 2.744E-03     9.0   1.049   1.046  1.000 2.802E+02  2.500E+02
 2400 2.026E+01 2.721E-03     8.8   1.040   1.025  1.000 2.802E+02  2.500E+02
 2600 2.475E+01 2.703E-03     8.7   1.033   1.011  1.000 2.802E+02  2.500E+02
 2800 3.022E+01 2.691E-03     8.6   1.029   1.002  1.000 2.802E+02  2.500E+02
 3000 3.691E+01 2.683E-03     8.5   1.026    .997  1.000 2.803E+02  2.500E+02
 3200 4.508E+01 2.679E-03     8.5   1.024    .994  1.000 2.803E+02  2.500E+02
 3400 5.504E+01 2.677E-03     8.5   1.024    .994  1.000 2.804E+02  2.500E+02
 3600 6.721E+01 2.677E-03     8.5   1.023    .993  1.000 2.804E+02  2.500E+02
 3800 8.209E+01 2.676E-03     8.5   1.023    .993  1.000 2.805E+02  2.500E+02
 4000 1.002E+02 2.676E-03     8.5   1.023    .993  1.000 2.806E+02  2.500E+02
 4200 1.202E+02 2.676E-03     8.5   1.023    .993  1.000 2.807E+02  2.500E+02
 4400 1.402E+02 2.676E-03     8.5   1.023    .993  1.000 2.808E+02  2.500E+02
 4600 1.602E+02 2.676E-03     8.5   1.023    .993  1.000 2.809E+02  2.500E+02
 4800 1.802E+02 2.676E-03     8.5   1.023    .993  1.000 2.810E+02  2.500E+02
 5000 2.002E+02 2.676E-03     8.5   1.023    .993  1.000 2.811E+02  2.500E+02
 5200 2.202E+02 2.676E-03     8.5   1.023    .993  1.000 2.812E+02  2.500E+02
 5400 2.402E+02 2.676E-03     8.5   1.023    .993  1.000 2.813E+02  2.500E+02
 5600 2.602E+02 2.676E-03     8.5   1.023    .993  1.000 2.814E+02  2.500E+02
 5800 2.802E+02 2.676E-03     8.5   1.023    .993  1.000 2.815E+02  2.500E+02
 6000 3.002E+02 2.676E-03     8.5   1.023    .993  1.000 2.816E+02  2.500E+02
 6200 3.202E+02 2.676E-03     8.5   1.023    .993  1.000 2.817E+02  2.500E+02
 6400 3.402E+02 2.676E-03     8.5   1.023    .993  1.000 2.818E+02  2.500E+02
 6427 3.429E+02 2.676E-03     8.5   1.023    .993  1.000 2.818E+02  2.500E+02
