  ====================================================
  TEXSTAN(academic)
  s410_7.dat, turb ml+em, pipe, CEF, Ts(x)                                
  stepsize: variable from dx=  .010 to dx=  .200
  energy eqn: solved, no source terms
  properties: constant
     po= 1.01325E+05  den= 1.17700E+00  vis= 1.83800E-05  sp_ht= 1.00500E+03
     prc(je)=     .700
  initial profiles: kstart=  1  dyi= 1.000E-06  rate=  .1750
  turbulence model information:
     m-l: k=0.40, al=0.070, a+=26, em=fn(0.005,0.9)
     turbulent prandtl number model: Kays variable prt
  axx= 0.0000E+00  bxx= 0.0000E+00  cxx= 0.0000E+00  dxx= 0.0000E+00
  exx= 0.0000E+00  fxx= 9.0000E-01  gxx= 0.0000E+00
  ====================================================
   Turbulent pipe flow benchmark
   cf/2,theo = 1./(2.236*ln(re,dh)-4.639)**2                           
   nu,theo = (re,dh-1000)*prm*cf2)/(1+12.7*(prm**0.667-1.)*sqrt(cf/2))
   re,dh = 1.0000E+05   prm =   .700
  ====================================================

 intg  x/dh      cf2         nu     cfrat   nurat  tm/ts  ts         qflux
    5 2.500E-02 7.767E-03   944.5   3.459   5.297   .999 2.804E+02  2.500E+02
  200 1.000E+00 3.188E-03   276.4   1.420   1.550   .996 2.812E+02  2.500E+02
  400 2.000E+00 2.858E-03   242.2   1.273   1.358   .995 2.814E+02  2.500E+02
  600 3.000E+00 2.706E-03   226.7   1.205   1.272   .995 2.815E+02  2.500E+02
  800 4.000E+00 2.617E-03   217.5   1.165   1.220   .995 2.816E+02  2.500E+02
 1000 5.000E+00 2.558E-03   211.4   1.139   1.186   .994 2.817E+02  2.500E+02
 1200 6.106E+00 2.513E-03   206.7   1.119   1.159   .994 2.817E+02  2.500E+02
 1400 7.458E+00 2.474E-03   202.5   1.102   1.136   .994 2.818E+02  2.500E+02
 1600 9.108E+00 2.438E-03   198.8   1.086   1.115   .994 2.818E+02  2.500E+02
 1800 1.112E+01 2.405E-03   195.3   1.071   1.095   .994 2.819E+02  2.500E+02
 2000 1.358E+01 2.375E-03   192.2   1.058   1.078   .994 2.820E+02  2.500E+02
 2200 1.659E+01 2.350E-03   189.6   1.047   1.063   .994 2.821E+02  2.500E+02
 2400 2.026E+01 2.330E-03   187.3   1.038   1.051   .994 2.822E+02  2.500E+02
 2600 2.475E+01 2.313E-03   185.6   1.030   1.041   .994 2.823E+02  2.500E+02
 2800 3.022E+01 2.302E-03   184.3   1.025   1.034   .994 2.824E+02  2.500E+02
 3000 3.691E+01 2.294E-03   183.5   1.022   1.029   .994 2.825E+02  2.500E+02
 3200 4.508E+01 2.290E-03   183.0   1.020   1.026   .994 2.827E+02  2.500E+02
 3400 5.504E+01 2.288E-03   182.7   1.019   1.025   .994 2.829E+02  2.500E+02
 3600 6.721E+01 2.287E-03   182.6   1.019   1.024   .994 2.831E+02  2.500E+02
 3800 8.209E+01 2.287E-03   182.6   1.019   1.024   .994 2.834E+02  2.500E+02
 4000 1.002E+02 2.287E-03   182.6   1.018   1.024   .994 2.837E+02  2.500E+02
 4200 1.202E+02 2.287E-03   182.6   1.018   1.024   .994 2.841E+02  2.500E+02
 4400 1.402E+02 2.287E-03   182.6   1.019   1.024   .994 2.845E+02  2.500E+02
 4600 1.602E+02 2.287E-03   182.6   1.019   1.024   .994 2.849E+02  2.500E+02
 4800 1.802E+02 2.287E-03   182.6   1.018   1.024   .994 2.852E+02  2.500E+02
 5000 2.002E+02 2.287E-03   182.6   1.018   1.024   .994 2.856E+02  2.500E+02
 5200 2.202E+02 2.287E-03   182.6   1.019   1.024   .994 2.860E+02  2.500E+02
 5400 2.402E+02 2.287E-03   182.6   1.019   1.024   .994 2.864E+02  2.500E+02
 5600 2.602E+02 2.287E-03   182.6   1.019   1.024   .994 2.867E+02  2.500E+02
 5800 2.802E+02 2.287E-03   182.6   1.018   1.024   .994 2.871E+02  2.500E+02
 6000 3.002E+02 2.287E-03   182.6   1.018   1.024   .994 2.875E+02  2.500E+02
 6200 3.202E+02 2.287E-03   182.6   1.019   1.024   .994 2.879E+02  2.500E+02
 6400 3.402E+02 2.287E-03   182.6   1.019   1.024   .994 2.883E+02  2.500E+02
 6427 3.429E+02 2.287E-03   182.6   1.018   1.024   .994 2.883E+02  2.500E+02
