  ====================================================
  TEXSTAN(academic)
  s410_7.dat, turb ml+em, pipe, CEF, Ts(x)                                
  stepsize: variable from dx=  .010 to dx=  .200
  energy eqn: solved, no source terms
  properties: constant
     po= 1.01325E+05  den= 1.31100E+04  vis= 1.01000E-03  sp_ht= 1.36000E+02
     prc(je)=     .010
  initial profiles: kstart=  1  dyi= 1.000E-06  rate=  .1750
  turbulence model information:
     m-l: k=0.40, al=0.070, a+=26, em=fn(0.005,0.9)
     turbulent prandtl number model: Kays variable prt
  axx= 0.0000E+00  bxx= 0.0000E+00  cxx= 0.0000E+00  dxx= 0.0000E+00
  exx= 0.0000E+00  fxx= 9.0000E-01  gxx= 0.0000E+00
  ====================================================
   Turbulent pipe flow benchmark
   cf/2,theo = 1./(2.236*ln(re,dh)-4.639)**2                           
   nu,theo = 6.3 + 0.0167*rem**0.85*prm**0.93                          
   re,dh = 1.0000E+05   prm =   .010
  ====================================================

 intg  x/dh      cf2         nu     cfrat   nurat  tm/ts  ts         qflux
    5 2.500E-02 7.767E-03   163.8   3.459  15.749  1.000 2.800E+02  2.500E+02
  200 1.000E+00 3.188E-03    28.5   1.420   2.740  1.000 2.800E+02  2.500E+02
  400 2.000E+00 2.858E-03    21.6   1.273   2.074  1.000 2.800E+02  2.500E+02
  600 3.000E+00 2.706E-03    18.6   1.205   1.791  1.000 2.800E+02  2.500E+02
  800 4.000E+00 2.617E-03    16.9   1.165   1.629  1.000 2.800E+02  2.500E+02
 1000 5.000E+00 2.558E-03    15.9   1.139   1.525  1.000 2.801E+02  2.500E+02
 1200 6.106E+00 2.513E-03    15.0   1.119   1.446  1.000 2.801E+02  2.500E+02
 1400 7.458E+00 2.474E-03    14.3   1.102   1.375  1.000 2.801E+02  2.500E+02
 1600 9.108E+00 2.438E-03    13.7   1.086   1.313  1.000 2.801E+02  2.500E+02
 1800 1.112E+01 2.405E-03    13.1   1.071   1.257  1.000 2.801E+02  2.500E+02
 2000 1.358E+01 2.375E-03    12.6   1.058   1.209  1.000 2.801E+02  2.500E+02
 2200 1.659E+01 2.350E-03    12.2   1.047   1.169  1.000 2.801E+02  2.500E+02
 2400 2.026E+01 2.330E-03    11.8   1.038   1.138  1.000 2.801E+02  2.500E+02
 2600 2.475E+01 2.313E-03    11.6   1.030   1.113  1.000 2.801E+02  2.500E+02
 2800 3.022E+01 2.302E-03    11.4   1.025   1.097  1.000 2.801E+02  2.500E+02
 3000 3.691E+01 2.294E-03    11.3   1.022   1.086  1.000 2.802E+02  2.500E+02
 3200 4.508E+01 2.290E-03    11.2   1.020   1.080  1.000 2.802E+02  2.500E+02
 3400 5.504E+01 2.288E-03    11.2   1.019   1.077  1.000 2.802E+02  2.500E+02
 3600 6.721E+01 2.287E-03    11.2   1.019   1.076  1.000 2.802E+02  2.500E+02
 3800 8.209E+01 2.287E-03    11.2   1.019   1.076  1.000 2.803E+02  2.500E+02
 4000 1.002E+02 2.287E-03    11.2   1.018   1.076  1.000 2.803E+02  2.500E+02
 4200 1.202E+02 2.287E-03    11.2   1.018   1.076  1.000 2.804E+02  2.500E+02
 4400 1.402E+02 2.287E-03    11.2   1.019   1.076  1.000 2.804E+02  2.500E+02
 4600 1.602E+02 2.287E-03    11.2   1.019   1.076  1.000 2.805E+02  2.500E+02
 4800 1.802E+02 2.287E-03    11.2   1.018   1.076  1.000 2.805E+02  2.500E+02
 5000 2.002E+02 2.287E-03    11.2   1.018   1.076  1.000 2.806E+02  2.500E+02
 5200 2.202E+02 2.287E-03    11.2   1.019   1.076  1.000 2.806E+02  2.500E+02
 5400 2.402E+02 2.287E-03    11.2   1.019   1.076  1.000 2.807E+02  2.500E+02
 5600 2.602E+02 2.287E-03    11.2   1.019   1.076  1.000 2.807E+02  2.500E+02
 5800 2.802E+02 2.287E-03    11.2   1.018   1.076  1.000 2.808E+02  2.500E+02
 6000 3.002E+02 2.287E-03    11.2   1.018   1.076  1.000 2.808E+02  2.500E+02
 6200 3.202E+02 2.287E-03    11.2   1.019   1.076  1.000 2.809E+02  2.500E+02
 6400 3.402E+02 2.287E-03    11.2   1.019   1.076  1.000 2.809E+02  2.500E+02
 6427 3.429E+02 2.287E-03    11.2   1.018   1.076  1.000 2.809E+02  2.500E+02
