  ====================================================
  TEXSTAN(academic)
  s31.dat, lam, pipe, CEF, q"s(x)                                         
  stepsize: variable from dx=  .010 to dx= 1.000
  energy eqn: solved, no source terms
  properties: constant
     po= 1.01325E+05  den= 1.00000E+03  vis= 8.90000E-04  sp_ht= 4.18200E+03
     prc(je)=    6.900
  initial profiles: kstart=  1  dyi= 5.000E-04  rate=  .0900
  laminar flow
  axx= 0.0000E+00  bxx= 0.0000E+00  cxx= 0.0000E+00  dxx= 0.0000E+00
  exx= 0.0000E+00  fxx= 0.0000E+00  gxx= 0.0000E+00
  ====================================================
   Laminar flow in a circular pipe benchmark test
   cf,theo = 16.0/re,dh                                                
   nu,theo = 4.36, based on f/d flow w/ const wall flux                
   re,dh = 1.0000E+03   prm =  6.900
  ====================================================

 intg  x/dh/re  cf*re  uclr  xplus     nu    th,cl tm/ts  ts         qflux
    5  .00003  137.95 1.037  .00001     .000  .000 1.000 3.000E+02  0.000E+00
   20  .00010   79.59 1.068  .00003     .000  .000 1.000 3.000E+02  0.000E+00
   40  .00020   60.72 1.093  .00006     .000  .000 1.000 3.000E+02  0.000E+00
   60  .00030   52.15 1.113  .00009     .000  .000 1.000 3.000E+02  0.000E+00
   80  .00040   46.78 1.130  .00012     .000  .000 1.000 3.000E+02  0.000E+00
  100  .00055   41.93 1.151  .00016     .000  .000 1.000 3.000E+02  0.000E+00
  120  .00077   37.45 1.176  .00022     .000  .000 1.000 3.000E+02  0.000E+00
  140  .00110   33.44 1.208  .00032     .000  .000 1.000 3.000E+02  0.000E+00
  160  .00159   29.93 1.247  .00046     .000  .000 1.000 3.000E+02  0.000E+00
  180  .00231   26.92 1.295  .00067     .000  .000 1.000 3.000E+02  0.000E+00
  200  .00338   24.36 1.353  .00098     .000  .000 1.000 3.000E+02  0.000E+00
  220  .00496   22.24 1.424  .00144     .000  .000 1.000 3.000E+02  0.000E+00
  240  .00733   20.47 1.511  .00212     .000  .000 1.000 3.000E+02  0.000E+00
  260  .01085   19.04 1.614  .00314     .000  .000 1.000 3.000E+02  0.000E+00
  280  .01562   17.99 1.720  .00453     .000  .000 1.000 3.000E+02  0.000E+00
  300  .02166   17.25 1.813  .00628     .000  .000 1.000 3.000E+02  0.000E+00
  320  .02931   16.73 1.887  .00850     .000  .000 1.000 3.000E+02  0.000E+00
  340  .03850   16.40 1.937  .01116     .000  .000 1.000 3.000E+02  0.000E+00
  360  .04850   16.21 1.966  .01406     .000  .000 1.000 3.000E+02  0.000E+00
  380  .05850   16.11 1.980  .01696     .000  .000 1.000 3.000E+02  0.000E+00
  400  .06850   16.06 1.988  .01986     .000  .000 1.000 3.000E+02  0.000E+00
  420  .07850   16.03 1.992  .02275     .000  .000 1.000 3.000E+02  0.000E+00
  440  .08850   16.01 1.995  .02565     .000  .000 1.000 3.000E+02  0.000E+00
  460  .09850   16.01 1.996  .02855     .000  .000 1.000 3.000E+02  0.000E+00
  463  .10000   16.01 1.996  .02899     .000  .000 1.000 3.000E+02  0.000E+00
